# Frequency (Hz), SPL (dB), Phase (degrees)
20.000000, 0.427367, 0
20.299999, 0.448256, 0
20.600000, 0.468844, 0
20.900000, 0.489193, 0
21.200001, 0.508762, 0
21.400000, 0.519702, 0
21.799999, 0.540191, 0
22.000000, 0.550337, 0
22.400000, 0.570435, 0
22.700001, 0.585268, 0
23.000000, 0.599879, 0
23.299999, 0.614318, 0
23.600000, 0.628586, 0
24.000000, 0.645998, 0
24.299999, 0.657890, 0
24.700001, 0.673562, 0
25.000000, 0.685202, 0
25.400000, 0.700455, 0
25.799999, 0.715487, 0
26.200001, 0.730232, 0
26.500000, 0.741192, 0
26.900000, 0.755143, 0
27.200001, 0.765034, 0
27.600000, 0.778131, 0
28.000000, 0.791018, 0
28.500000, 0.806848, 0
29.000000, 0.822423, 0
29.500000, 0.837793, 0
30.000000, 0.852601, 0
30.400000, 0.860205, 0
30.700001, 0.865855, 0
31.100000, 0.873193, 0
31.500000, 0.880532, 0
32.000000, 0.889539, 0
32.500000, 0.898400, 0
33.000000, 0.907122, 0
33.500000, 0.915708, 0
34.000000, 0.924163, 0
34.500000, 0.932490, 0
35.000000, 0.940693, 0
35.500000, 0.948875, 0
36.000000, 0.956839, 0
36.500000, 0.964690, 0
37.000000, 0.972517, 0
37.500000, 0.980162, 0
38.200001, 0.989641, 0
38.700001, 0.995859, 0
39.500000, 1.005561, 0
40.000000, 1.011606, 0
40.599998, 1.018691, 0
41.200001, 1.025664, 0
41.799999, 1.032572, 0
42.500000, 1.039969, 0
43.099998, 1.043122, 0
43.700001, 1.046241, 0
44.400002, 1.049845, 0
45.000000, 1.052845, 0
45.500000, 1.055402, 0
46.200001, 1.058797, 0
46.799999, 1.061764, 0
47.500000, 1.065129, 0
48.200001, 1.068889, 0
48.700001, 1.071625, 0
49.400002, 1.075392, 0
50.000000, 1.078581, 0
50.799999, 1.082763, 0
51.500000, 1.086414, 0
52.200001, 1.089950, 0
53.000000, 1.093997, 0
53.799999, 1.098124, 0
54.500000, 1.101943, 0
55.200001, 1.105721, 0
56.000000, 1.109865, 0
57.000000, 1.115095, 0
58.000000, 1.120134, 0
59.000000, 1.125172, 0
60.000000, 1.130100, 0
60.799999, 1.133072, 0
61.500000, 1.135693, 0
62.200001, 1.138213, 0
63.000000, 1.141131, 0
64.000000, 1.144695, 0
65.000000, 1.148200, 0
66.000000, 1.151705, 0
67.000000, 1.155101, 0
68.000000, 1.156594, 0
69.000000, 1.157300, 0
70.000000, 1.157900, 0
71.000000, 1.158500, 0
72.000000, 1.159100, 0
73.000000, 1.159700, 0
74.000000, 1.160300, 0
75.000000, 1.160863, 0
76.199997, 1.161022, 0
77.500000, 1.160600, 0
78.800003, 1.160180, 0
80.000000, 1.159800, 0
81.199997, 1.159419, 0
82.500000, 1.159015, 0
83.800003, 1.158680, 0
85.000000, 1.158400, 0
86.199997, 1.158880, 0
87.500000, 1.159400, 0
88.500000, 1.159800, 0
90.000000, 1.160400, 0
91.199997, 1.160880, 0
92.500000, 1.161400, 0
93.800003, 1.161834, 0
95.000000, 1.162300, 0
96.199997, 1.162881, 0
97.500000, 1.163500, 0
98.800003, 1.164132, 0
100.000000, 1.164600, 0
101.500000, 1.165300, 0
103.000000, 1.166000, 0
104.400002, 1.166554, 0
106.000000, 1.167300, 0
107.500000, 1.166600, 0
109.000000, 1.163898, 0
110.599998, 1.161036, 0
112.000000, 1.158570, 0
113.800003, 1.155417, 0
115.000000, 1.153406, 0
117.199997, 1.149685, 0
118.000000, 1.148296, 0
120.599998, 1.144861, 0
122.000000, 1.144600, 0
124.099998, 1.144208, 0
125.000000, 1.144100, 0
126.500000, 1.143800, 0
128.000000, 1.143500, 0
131.500000, 1.142900, 0
132.000000, 1.142800, 0
134.000000, 1.142500, 0
136.000000, 1.143463, 0
138.000000, 1.145100, 0
140.000000, 1.146698, 0
143.000000, 1.149205, 0
145.000000, 1.150696, 0
147.500000, 1.152706, 0
150.000000, 1.154600, 0
152.500000, 1.148740, 0
155.000000, 1.135524, 0
157.500000, 1.122508, 0
160.000000, 1.109700, 0
162.500000, 1.097073, 0
165.000000, 1.084634, 0
167.500000, 1.072430, 0
170.000000, 1.060776, 0
172.500000, 1.053154, 0
175.000000, 1.045547, 0
177.500000, 1.038058, 0
180.000000, 1.030800, 0
182.500000, 1.023555, 0
185.000000, 1.016401, 0
187.500000, 1.009275, 0
190.000000, 1.002350, 0
192.500000, 1.000400, 0
195.000000, 0.999900, 0
197.500000, 0.999394, 0
200.000000, 0.999000, 0
203.000000, 0.998400, 0
206.000000, 0.997873, 0
209.000000, 0.997300, 0
212.000000, 0.996800, 0
214.000000, 0.996299, 0
218.000000, 0.989712, 0
220.000000, 0.986502, 0
224.000000, 0.980099, 0
227.000000, 0.975401, 0
230.000000, 0.970755, 0
233.000000, 0.966193, 0
236.000000, 0.961635, 0
240.000000, 0.955700, 0
243.000000, 0.950159, 0
247.000000, 0.942807, 0
250.000000, 0.937481, 0
254.000000, 0.930397, 0
258.000000, 0.923359, 0
262.000000, 0.916467, 0
265.000000, 0.911400, 0
269.000000, 0.904690, 0
272.000000, 0.900936, 0
276.000000, 0.896308, 0
280.000000, 0.891807, 0
285.000000, 0.886248, 0
290.000000, 0.880773, 0
295.000000, 0.875399, 0
300.000000, 0.870101, 0
304.000000, 0.866498, 0
307.000000, 0.864599, 0
311.000000, 0.862094, 0
315.000000, 0.859702, 0
320.000000, 0.856600, 0
325.000000, 0.853637, 0
330.000000, 0.850697, 0
335.000000, 0.847795, 0
340.000000, 0.845004, 0
345.000000, 0.842394, 0
350.000000, 0.839894, 0
355.000000, 0.837464, 0
360.000000, 0.835000, 0
365.000000, 0.832600, 0
370.000000, 0.830199, 0
375.000000, 0.827904, 0
382.000000, 0.823947, 0
387.000000, 0.817162, 0
395.000000, 0.806472, 0
400.000000, 0.799938, 0
406.000000, 0.792141, 0
412.000000, 0.784472, 0
418.000000, 0.776927, 0
425.000000, 0.768210, 0
431.000000, 0.757762, 0
437.000000, 0.744325, 0
444.000000, 0.728834, 0
450.000000, 0.715767, 0
455.000000, 0.705013, 0
462.000000, 0.690184, 0
468.000000, 0.677660, 0
475.000000, 0.663278, 0
482.000000, 0.651401, 0
487.000000, 0.648743, 0
494.000000, 0.645109, 0
500.000000, 0.642078, 0
508.000000, 0.638000, 0
515.000000, 0.634508, 0
522.000000, 0.631101, 0
530.000000, 0.627243, 0
538.000000, 0.623399, 0
545.000000, 0.619500, 0
552.000000, 0.615501, 0
560.000000, 0.611001, 0
570.000000, 0.605400, 0
580.000000, 0.599973, 0
590.000000, 0.594564, 0
600.000000, 0.589301, 0
608.000000, 0.581721, 0
615.000000, 0.569192, 0
622.000000, 0.556816, 0
630.000000, 0.542811, 0
640.000000, 0.525600, 0
650.000000, 0.508676, 0
660.000000, 0.491928, 0
670.000000, 0.475564, 0
680.000000, 0.459775, 0
690.000000, 0.452954, 0
700.000000, 0.446139, 0
710.000000, 0.439570, 0
720.000000, 0.432998, 0
730.000000, 0.426500, 0
740.000000, 0.420108, 0
750.000000, 0.413798, 0
762.000000, 0.406396, 0
775.000000, 0.403000, 0
788.000000, 0.400070, 0
800.000000, 0.397295, 0
812.000000, 0.394639, 0
825.000000, 0.391806, 0
838.000000, 0.389004, 0
850.000000, 0.386398, 0
862.000000, 0.379735, 0
875.000000, 0.367686, 0
885.000000, 0.358573, 0
900.000000, 0.345032, 0
912.000000, 0.334408, 0
925.000000, 0.323040, 0
938.000000, 0.311898, 0
950.000000, 0.301675, 0
962.000000, 0.290837, 0
975.000000, 0.269318, 0
988.000000, 0.248034, 0
1000.000000, 0.228626, 0
1015.000000, 0.204734, 0
1030.000000, 0.181130, 0
1044.000000, 0.159506, 0
1060.000000, 0.135027, 0
1075.000000, 0.112478, 0
1090.000000, 0.103159, 0
1106.000000, 0.098101, 0
1120.000000, 0.093801, 0
1138.000000, 0.088286, 0
1150.000000, 0.084693, 0
1172.000000, 0.078099, 0
1180.000000, 0.075771, 0
1206.000000, 0.068293, 0
1220.000000, 0.070834, 0
1241.000000, 0.080114, 0
1250.000000, 0.083999, 0
1265.000000, 0.090533, 0
1280.000000, 0.097000, 0
1315.000000, 0.111641, 0
1320.000000, 0.113698, 0
1340.000000, 0.121975, 0
1360.000000, 0.128549, 0
1380.000000, 0.079991, 0
1400.000000, 0.032069, 0
1430.000000, -0.038415, 0
1450.000000, -0.084651, 0
1475.000000, -0.141459, 0
1500.000000, -0.197421, 0
1525.000000, -0.252361, 0
1550.000000, -0.254700, 0
1575.000000, -0.254700, 0
1600.000000, -0.254700, 0
1625.000000, -0.254700, 0
1650.000000, -0.254700, 0
1675.000000, -0.254600, 0
1700.000000, -0.254600, 0
1725.000000, -0.246372, 0
1750.000000, -0.229267, 0
1775.000000, -0.212407, 0
1800.000000, -0.195673, 0
1825.000000, -0.179274, 0
1850.000000, -0.163090, 0
1875.000000, -0.147126, 0
1900.000000, -0.131375, 0
1925.000000, -0.120051, 0
1950.000000, -0.154953, 0
1975.000000, -0.189363, 0
2000.000000, -0.223416, 0
2030.000000, -0.263683, 0
2060.000000, -0.303365, 0
2090.000000, -0.342471, 0
2120.000000, -0.381022, 0
2140.000000, -0.406423, 0
2180.000000, -0.432800, 0
2200.000000, -0.435600, 0
2240.000000, -0.441193, 0
2270.000000, -0.445300, 0
2300.000000, -0.449309, 0
2330.000000, -0.453371, 0
2360.000000, -0.457329, 0
2400.000000, -0.462499, 0
2430.000000, -0.463197, 0
2470.000000, -0.450443, 0
2500.000000, -0.441027, 0
2540.000000, -0.428669, 0
2580.000000, -0.416503, 0
2620.000000, -0.404512, 0
2650.000000, -0.395578, 0
2690.000000, -0.383935, 0
2720.000000, -0.375152, 0
2760.000000, -0.353647, 0
2800.000000, -0.332392, 0
2850.000000, -0.306170, 0
2900.000000, -0.280521, 0
2950.000000, -0.255223, 0
3000.000000, -0.230351, 0
3040.000000, -0.210798, 0
3070.000000, -0.198998, 0
3110.000000, -0.186194, 0
3150.000000, -0.173482, 0
3200.000000, -0.157872, 0
3250.000000, -0.142558, 0
3300.000000, -0.127403, 0
3350.000000, -0.112543, 0
3400.000000, -0.097824, 0
3450.000000, -0.106452, 0
3500.000000, -0.142382, 0
3550.000000, -0.177793, 0
3600.000000, -0.212712, 0
3650.000000, -0.247158, 0
3700.000000, -0.281116, 0
3750.000000, -0.314645, 0
3820.000000, -0.360759, 0
3870.000000, -0.375600, 0
3950.000000, -0.365901, 0
4000.000000, -0.359877, 0
4060.000000, -0.352778, 0
4120.000000, -0.345801, 0
4180.000000, -0.338866, 0
4250.000000, -0.330951, 0
4310.000000, -0.324267, 0
4370.000000, -0.301292, 0
4440.000000, -0.271820, 0
4500.000000, -0.246929, 0
4550.000000, -0.226330, 0
4620.000000, -0.197991, 0
4680.000000, -0.174095, 0
4750.000000, -0.146475, 0
4820.000000, -0.119345, 0
4870.000000, -0.110721, 0
4940.000000, -0.116945, 0
5000.000000, -0.122283, 0
5080.000000, -0.129260, 0
5150.000000, -0.135300, 0
5220.000000, -0.141230, 0
5300.000000, -0.147921, 0
5380.000000, -0.154467, 0
5450.000000, -0.158490, 0
5520.000000, -0.150048, 0
5600.000000, -0.140546, 0
5700.000000, -0.128786, 0
5800.000000, -0.117309, 0
5900.000000, -0.106008, 0
6000.000000, -0.094875, 0
6080.000000, -0.086148, 0
6150.000000, -0.089917, 0
6220.000000, -0.101304, 0
6300.000000, -0.114105, 0
6400.000000, -0.129919, 0
6500.000000, -0.145551, 0
6600.000000, -0.160885, 0
6700.000000, -0.176033, 0
6800.000000, -0.190976, 0
6900.000000, -0.176918, 0
7000.000000, -0.125803, 0
7100.000000, -0.075410, 0
7200.000000, -0.025621, 0
7300.000000, 0.023383, 0
7400.000000, 0.071721, 0
7500.000000, 0.119411, 0
7620.000000, 0.175895, 0
7750.000000, 0.264914, 0
7880.000000, 0.394002, 0
8000.000000, 0.511306, 0
8120.000000, 0.626803, 0
8250.000000, 0.750093, 0
8380.000000, 0.871405, 0
8500.000000, 0.981727, 0
8620.000000, 1.090518, 0
8750.000000, 1.155446, 0
8850.000000, 1.197556, 0
9000.000000, 1.259955, 0
9120.000000, 1.309064, 0
9250.000000, 1.361596, 0
9380.000000, 1.413342, 0
9500.000000, 1.460523, 0
9620.000000, 1.507052, 0
9750.000000, 1.543448, 0
9880.000000, 1.558802, 0
10000.000000, 1.572876, 0
10150.000000, 1.590165, 0
10300.000000, 1.607306, 0
10440.000000, 1.622959, 0
10600.000000, 1.640633, 0
10750.000000, 1.657044, 0
10900.000000, 1.671800, 0
11060.000000, 1.672597, 0
11200.000000, 1.673294, 0
11380.000000, 1.674194, 0
11500.000000, 1.674800, 0
11720.000000, 1.675900, 0
11800.000000, 1.676300, 0
12060.000000, 1.677500, 0
12200.000000, 1.678202, 0
12410.000000, 1.625347, 0
12500.000000, 1.600414, 0
12650.000000, 1.559323, 0
12800.000000, 1.518628, 0
13150.000000, 1.425675, 0
13200.000000, 1.412523, 0
13400.000000, 1.360709, 0
13600.000000, 1.309680, 0
13800.000000, 1.287838, 0
14000.000000, 1.307331, 0
14300.000000, 1.336038, 0
14500.000000, 1.354856, 0
14750.000000, 1.378018, 0
15000.000000, 1.400755, 0
15250.000000, 1.423101, 0
15500.000000, 1.415600, 0
15750.000000, 1.364890, 0
16000.000000, 1.314984, 0
16250.000000, 1.265872, 0
16500.000000, 1.217558, 0
16750.000000, 1.169841, 0
17000.000000, 1.122965, 0
17250.000000, 1.076643, 0
17500.000000, 0.938623, 0
17750.000000, 0.787226, 0
18000.000000, 0.637834, 0
18250.000000, 0.490564, 0
18500.000000, 0.345308, 0
18750.000000, 0.202066, 0
19000.000000, 0.060550, 0
19250.000000, -0.079000, 0
19500.000000, -0.194565, 0
19750.000000, -0.273565, 0
20000.000000, -0.351600, 0
